PixelSpacing = 2.66
Voltage = 300
ImageFile = TS_41.mrc
ImageSize = 3708 3838
DataMode = 6

[T = SerialEM: Digitized by Gatan K2 Summit on Titan Krios D 03-May-23  13:59:32    ]

[T =     Tilt axis angle = 84.3, binning = 1  spot = 6  camera = 0 bidir = -10.0]

[ZValue = 0]
MinMaxMean = 0 18238 101.119
TiltAngle = -66.9998
StagePosition = 4.97259 -299.41
StageZ = -5.85607
Magnification = 53000
Intensity = 0.134968
ExposureDose = 3.08367
DoseRate = 1.11844
PixelSpacing = 2.66
SpotSize = 6
Defocus = 5.77443
ImageShift = 1.70971 0.195647
RotationAngle = 174.25
ExposureTime = 2.6
Binning = 1
CameraIndex = 0
DividedBy2 = 0
OperatingMode = 1
MagIndex = 28
LowDoseConSet = 4
CountsPerElectron = 38
TargetDefocus = -3.5
PriorRecordDose = 129.755
SubFramePath = X:\Users\BioEMlab\Jarek\Jarek 02052023\raw\agro-1_130_048_-67.0.tif
NumSubFrames = 26
FrameDosesAndNumber = 0.1186 26
DateTime = 03-May-23  13:59:32
FilterSlitAndLoss = 20 0

[ZValue = 1]
MinMaxMean = 0 18404 173.906
TiltAngle = -63.9997
StagePosition = 4.97162 -299.375
StageZ = -5.85607
Magnification = 53000
Intensity = 0.134968
ExposureDose = 3.08367
DoseRate = 1.95438
PixelSpacing = 2.66
SpotSize = 6
Defocus = 5.58422
ImageShift = 1.59849 0.345054
RotationAngle = 174.25
ExposureTime = 2.6
Binning = 1
CameraIndex = 0
DividedBy2 = 0
OperatingMode = 1
MagIndex = 28
LowDoseConSet = 4
CountsPerElectron = 38
TargetDefocus = -3.5
PriorRecordDose = 126.672
SubFramePath = X:\Users\BioEMlab\Jarek\Jarek 02052023\raw\agro-1_130_047_-64.0.tif
NumSubFrames = 26
FrameDosesAndNumber = 0.1186 26
DateTime = 03-May-23  13:58:41
FilterSlitAndLoss = 20 0

[ZValue = 2]
MinMaxMean = 0 18904 187.463
TiltAngle = -60.9995
StagePosition = 4.97162 -299.393
StageZ = -5.85607
Magnification = 53000
Intensity = 0.134968
ExposureDose = 3.08367
DoseRate = 2.12199
PixelSpacing = 2.66
SpotSize = 6
Defocus = 5.14787
ImageShift = 1.50831 0.463008
RotationAngle = 174.25
ExposureTime = 2.6
Binning = 1
CameraIndex = 0
DividedBy2 = 0
OperatingMode = 1
MagIndex = 28
LowDoseConSet = 4
CountsPerElectron = 38
TargetDefocus = -3.5
PriorRecordDose = 123.588
SubFramePath = X:\Users\BioEMlab\Jarek\Jarek 02052023\raw\agro-1_130_046_-61.0.tif
NumSubFrames = 26
FrameDosesAndNumber = 0.1186 26
DateTime = 03-May-23  13:57:46
FilterSlitAndLoss = 20 0

[ZValue = 3]
MinMaxMean = 0 18404 199.74
TiltAngle = -58.0009
StagePosition = 4.97551 -299.367
StageZ = -5.85607
Magnification = 53000
Intensity = 0.134968
ExposureDose = 3.08367
DoseRate = 2.26408
PixelSpacing = 2.66
SpotSize = 6
Defocus = 4.0757
ImageShift = 1.44433 0.493338
RotationAngle = 174.25
ExposureTime = 2.6
Binning = 1
CameraIndex = 0
DividedBy2 = 0
OperatingMode = 1
MagIndex = 28
LowDoseConSet = 4
CountsPerElectron = 38
TargetDefocus = -3.5
PriorRecordDose = 119.319
SubFramePath = X:\Users\BioEMlab\Jarek\Jarek 02052023\raw\agro-1_130_045_-58.0.tif
NumSubFrames = 26
FrameDosesAndNumber = 0.1186 26
DateTime = 03-May-23  13:56:56
FilterSlitAndLoss = 20 0

[ZValue = 4]
MinMaxMean = 0 18164 232.692
TiltAngle = -54.9993
StagePosition = 4.96967 -299.363
StageZ = -5.85335
Magnification = 53000
Intensity = 0.134968
ExposureDose = 3.08367
DoseRate = 2.65054
PixelSpacing = 2.66
SpotSize = 6
Defocus = 3.94278
ImageShift = 0.256754 -0.099843
RotationAngle = 174.25
ExposureTime = 2.6
Binning = 1
CameraIndex = 0
DividedBy2 = 0
OperatingMode = 1
MagIndex = 28
LowDoseConSet = 4
CountsPerElectron = 38
TargetDefocus = -3.5
PriorRecordDose = 94.8906
SubFramePath = X:\Users\BioEMlab\Jarek\Jarek 02052023\raw\agro-1_130_030_-55.0.tif
NumSubFrames = 26
FrameDosesAndNumber = 0.1186 26
DateTime = 03-May-23  13:49:31
FilterSlitAndLoss = 20 0

[ZValue = 5]
MinMaxMean = 0 18293 246.864
TiltAngle = -51.9996
StagePosition = 4.97746 -299.408
StageZ = -5.85335
Magnification = 53000
Intensity = 0.134968
ExposureDose = 3.08367
DoseRate = 2.83203
PixelSpacing = 2.66
SpotSize = 6
Defocus = 3.66327
ImageShift = 0.142381 0.0447746
RotationAngle = 174.25
ExposureTime = 2.6
Binning = 1
CameraIndex = 0
DividedBy2 = 0
OperatingMode = 1
MagIndex = 28
LowDoseConSet = 4
CountsPerElectron = 38
TargetDefocus = -3.5
PriorRecordDose = 90.6217
SubFramePath = X:\Users\BioEMlab\Jarek\Jarek 02052023\raw\agro-1_130_029_-52.0.tif
NumSubFrames = 26
FrameDosesAndNumber = 0.1186 26
DateTime = 03-May-23  13:48:36
FilterSlitAndLoss = 20 0

[ZValue = 6]
MinMaxMean = 0 18552 257.082
TiltAngle = -49.002
StagePosition = 4.96967 -299.362
StageZ = -5.85335
Magnification = 53000
Intensity = 0.134968
ExposureDose = 3.08367
DoseRate = 2.94656
PixelSpacing = 2.66
SpotSize = 6
Defocus = 3.37371
ImageShift = 0.107138 0.0862053
RotationAngle = 174.25
ExposureTime = 2.6
Binning = 1
CameraIndex = 0
DividedBy2 = 0
OperatingMode = 1
MagIndex = 28
LowDoseConSet = 4
CountsPerElectron = 38
TargetDefocus = -3.5
PriorRecordDose = 87.538
SubFramePath = X:\Users\BioEMlab\Jarek\Jarek 02052023\raw\agro-1_130_028_-49.0.tif
NumSubFrames = 26
FrameDosesAndNumber = 0.1186 26
DateTime = 03-May-23  13:47:53
FilterSlitAndLoss = 20 0

[ZValue = 7]
MinMaxMean = 0 21389 264.94
TiltAngle = -46.0019
StagePosition = 4.97064 -299.411
StageZ = -5.85335
Magnification = 53000
Intensity = 0.134968
ExposureDose = 3.08367
DoseRate = 3.0676
PixelSpacing = 2.66
SpotSize = 6
Defocus = 3.0788
ImageShift = 0.0722252 0.12599
RotationAngle = 174.25
ExposureTime = 2.6
Binning = 1
CameraIndex = 0
DividedBy2 = 0
OperatingMode = 1
MagIndex = 28
LowDoseConSet = 4
CountsPerElectron = 38
TargetDefocus = -3.5
PriorRecordDose = 84.4543
SubFramePath = X:\Users\BioEMlab\Jarek\Jarek 02052023\raw\agro-1_130_027_-46.0.tif
NumSubFrames = 26
FrameDosesAndNumber = 0.1186 26
DateTime = 03-May-23  13:47:09
FilterSlitAndLoss = 20 0

[ZValue = 8]
MinMaxMean = 0 18700 273.724
TiltAngle = -43.0037
StagePosition = 4.95702 -299.366
StageZ = -5.85335
Magnification = 53000
Intensity = 0.134968
ExposureDose = 3.08367
DoseRate = 3.1819
PixelSpacing = 2.66
SpotSize = 6
Defocus = 2.82397
ImageShift = 0.0438181 0.180271
RotationAngle = 174.25
ExposureTime = 2.6
Binning = 1
CameraIndex = 0
DividedBy2 = 0
OperatingMode = 1
MagIndex = 28
LowDoseConSet = 4
CountsPerElectron = 38
TargetDefocus = -3.5
PriorRecordDose = 81.3707
SubFramePath = X:\Users\BioEMlab\Jarek\Jarek 02052023\raw\agro-1_130_026_-43.0.tif
NumSubFrames = 26
FrameDosesAndNumber = 0.1186 26
DateTime = 03-May-23  13:46:25
FilterSlitAndLoss = 20 0

[ZValue = 9]
MinMaxMean = 0 18349 279.975
TiltAngle = -40.0031
StagePosition = 4.97454 -299.409
StageZ = -5.85063
Magnification = 53000
Intensity = 0.134968
ExposureDose = 3.08367
DoseRate = 3.2525
PixelSpacing = 2.66
SpotSize = 6
Defocus = 2.83671
ImageShift = -0.0770368 0.287956
RotationAngle = 174.25
ExposureTime = 2.6
Binning = 1
CameraIndex = 0
DividedBy2 = 0
OperatingMode = 1
MagIndex = 28
LowDoseConSet = 4
CountsPerElectron = 38
TargetDefocus = -3.5
PriorRecordDose = 62.8686
SubFramePath = X:\Users\BioEMlab\Jarek\Jarek 02052023\raw\agro-1_130_020_-40.0.tif
NumSubFrames = 26
FrameDosesAndNumber = 0.1186 26
DateTime = 03-May-23  13:42:23
FilterSlitAndLoss = 20 0

[ZValue = 10]
MinMaxMean = 0 18941 285.57
TiltAngle = -37.004
StagePosition = 4.96383 -299.362
StageZ = -5.85063
Magnification = 53000
Intensity = 0.134968
ExposureDose = 3.08367
DoseRate = 3.30614
PixelSpacing = 2.66
SpotSize = 6
Defocus = 2.48563
ImageShift = -0.100803 0.325534
RotationAngle = 174.25
ExposureTime = 2.6
Binning = 1
CameraIndex = 0
DividedBy2 = 0
OperatingMode = 1
MagIndex = 28
LowDoseConSet = 4
CountsPerElectron = 38
TargetDefocus = -3.5
PriorRecordDose = 59.785
SubFramePath = X:\Users\BioEMlab\Jarek\Jarek 02052023\raw\agro-1_130_019_-37.0.tif
NumSubFrames = 26
FrameDosesAndNumber = 0.1186 26
DateTime = 03-May-23  13:41:38
FilterSlitAndLoss = 20 0

[ZValue = 11]
MinMaxMean = 0 18275 290.98
TiltAngle = -34.0008
StagePosition = 4.97648 -299.408
StageZ = -5.85131
Magnification = 53000
Intensity = 0.134968
ExposureDose = 3.08367
DoseRate = 3.37039
PixelSpacing = 2.66
SpotSize = 6
Defocus = 2.29824
ImageShift = -0.15974 0.380592
RotationAngle = 174.25
ExposureTime = 2.6
Binning = 1
CameraIndex = 0
DividedBy2 = 0
OperatingMode = 1
MagIndex = 28
LowDoseConSet = 4
CountsPerElectron = 38
TargetDefocus = -3.5
PriorRecordDose = 56.7013
SubFramePath = X:\Users\BioEMlab\Jarek\Jarek 02052023\raw\agro-1_130_018_-34.0.tif
NumSubFrames = 26
FrameDosesAndNumber = 0.1186 26
DateTime = 03-May-23  13:40:55
FilterSlitAndLoss = 20 0

[ZValue = 12]
MinMaxMean = 0 17923 296.215
TiltAngle = -30.9997
StagePosition = 4.96383 -299.359
StageZ = -5.85131
Magnification = 53000
Intensity = 0.134968
ExposureDose = 3.08367
DoseRate = 3.45125
PixelSpacing = 2.66
SpotSize = 6
Defocus = 2.02081
ImageShift = -0.134438 0.375825
RotationAngle = 174.25
ExposureTime = 2.6
Binning = 1
CameraIndex = 0
DividedBy2 = 0
OperatingMode = 1
MagIndex = 28
LowDoseConSet = 4
CountsPerElectron = 38
TargetDefocus = -3.5
PriorRecordDose = 53.6176
SubFramePath = X:\Users\BioEMlab\Jarek\Jarek 02052023\raw\agro-1_130_017_-31.0.tif
NumSubFrames = 26
FrameDosesAndNumber = 0.1186 26
DateTime = 03-May-23  13:40:12
FilterSlitAndLoss = 20 0

[ZValue = 13]
MinMaxMean = 0 18164 298.891
TiltAngle = -28.0031
StagePosition = 4.96383 -299.362
StageZ = -5.8486
Magnification = 53000
Intensity = 0.134968
ExposureDose = 3.08367
DoseRate = 3.46593
PixelSpacing = 2.66
SpotSize = 6
Defocus = 1.69666
ImageShift = -0.170181 0.402551
RotationAngle = 174.25
ExposureTime = 2.6
Binning = 1
CameraIndex = 0
DividedBy2 = 0
OperatingMode = 1
MagIndex = 28
LowDoseConSet = 4
CountsPerElectron = 38
TargetDefocus = -3.5
PriorRecordDose = 38.1993
SubFramePath = X:\Users\BioEMlab\Jarek\Jarek 02052023\raw\agro-1_130_012_-28.0.tif
NumSubFrames = 26
FrameDosesAndNumber = 0.1186 26
DateTime = 03-May-23  13:36:40
FilterSlitAndLoss = 20 0

[ZValue = 14]
MinMaxMean = 0 18312 302.725
TiltAngle = -25.0019
StagePosition = 4.97454 -299.405
StageZ = -5.8486
Magnification = 53000
Intensity = 0.134968
ExposureDose = 3.08367
DoseRate = 3.52973
PixelSpacing = 2.66
SpotSize = 6
Defocus = 1.51261
ImageShift = -0.156843 0.339942
RotationAngle = 174.25
ExposureTime = 2.6
Binning = 1
CameraIndex = 0
DividedBy2 = 0
OperatingMode = 1
MagIndex = 28
LowDoseConSet = 4
CountsPerElectron = 38
TargetDefocus = -3.5
PriorRecordDose = 35.1156
SubFramePath = X:\Users\BioEMlab\Jarek\Jarek 02052023\raw\agro-1_130_011_-25.0.tif
NumSubFrames = 26
FrameDosesAndNumber = 0.1186 26
DateTime = 03-May-23  13:35:55
FilterSlitAndLoss = 20 0

[ZValue = 15]
MinMaxMean = 0 18275 305.325
TiltAngle = -22.0038
StagePosition = 4.96091 -299.354
StageZ = -5.8486
Magnification = 53000
Intensity = 0.134968
ExposureDose = 3.08367
DoseRate = 3.55655
PixelSpacing = 2.66
SpotSize = 6
Defocus = 1.16838
ImageShift = -0.0875657 0.251604
RotationAngle = 174.25
ExposureTime = 2.6
Binning = 1
CameraIndex = 0
DividedBy2 = 0
OperatingMode = 1
MagIndex = 28
LowDoseConSet = 4
CountsPerElectron = 38
TargetDefocus = -3.5
PriorRecordDose = 32.0319
SubFramePath = X:\Users\BioEMlab\Jarek\Jarek 02052023\raw\agro-1_130_010_-22.0.tif
NumSubFrames = 26
FrameDosesAndNumber = 0.1186 26
DateTime = 03-May-23  13:35:12
FilterSlitAndLoss = 20 0

[ZValue = 16]
MinMaxMean = 0 17905 304.731
TiltAngle = -19.0012
StagePosition = 4.96578 -299.36
StageZ = -5.84656
Magnification = 53000
Intensity = 0.134968
ExposureDose = 3.08367
DoseRate = 3.552
PixelSpacing = 2.66
SpotSize = 6
Defocus = 0.8192
ImageShift = -0.0802792 0.188079
RotationAngle = 174.25
ExposureTime = 2.6
Binning = 1
CameraIndex = 0
DividedBy2 = 0
OperatingMode = 1
MagIndex = 28
LowDoseConSet = 4
CountsPerElectron = 38
TargetDefocus = -3.5
PriorRecordDose = 18.5119
SubFramePath = X:\Users\BioEMlab\Jarek\Jarek 02052023\raw\agro-1_130_006_-19.0.tif
NumSubFrames = 26
FrameDosesAndNumber = 0.1186 26
DateTime = 03-May-23  13:32:22
FilterSlitAndLoss = 20 0

[ZValue = 17]
MinMaxMean = 0 18053 306.048
TiltAngle = -16
StagePosition = 4.97454 -299.404
StageZ = -5.84656
Magnification = 53000
Intensity = 0.134968
ExposureDose = 3.08367
DoseRate = 3.56955
PixelSpacing = 2.66
SpotSize = 6
Defocus = 0.557521
ImageShift = -0.0690788 0.140194
RotationAngle = 174.25
ExposureTime = 2.6
Binning = 1
CameraIndex = 0
DividedBy2 = 0
OperatingMode = 1
MagIndex = 28
LowDoseConSet = 4
CountsPerElectron = 38
TargetDefocus = -3.5
PriorRecordDose = 15.4283
SubFramePath = X:\Users\BioEMlab\Jarek\Jarek 02052023\raw\agro-1_130_005_-16.0.tif
NumSubFrames = 26
FrameDosesAndNumber = 0.1186 26
DateTime = 03-May-23  13:31:39
FilterSlitAndLoss = 20 0

[ZValue = 18]
MinMaxMean = 0 18275 306.263
TiltAngle = -13.0004
StagePosition = 4.96675 -299.362
StageZ = -5.84656
Magnification = 53000
Intensity = 0.134968
ExposureDose = 3.08367
DoseRate = 3.57477
PixelSpacing = 2.66
SpotSize = 6
Defocus = 0.368904
ImageShift = -0.0338415 0.0778927
RotationAngle = 174.25
ExposureTime = 2.6
Binning = 1
CameraIndex = 0
DividedBy2 = 0
OperatingMode = 1
MagIndex = 28
LowDoseConSet = 4
CountsPerElectron = 38
TargetDefocus = -3.5
PriorRecordDose = 12.3446
SubFramePath = X:\Users\BioEMlab\Jarek\Jarek 02052023\raw\agro-1_130_004_-13.0.tif
NumSubFrames = 26
FrameDosesAndNumber = 0.1186 26
DateTime = 03-May-23  13:30:56
FilterSlitAndLoss = 20 0

[ZValue = 19]
MinMaxMean = 0 18238 304.53
TiltAngle = -10.0003
StagePosition = 4.97259 -299.396
StageZ = -5.84588
Magnification = 53000
Intensity = 0.134968
ExposureDose = 3.08367
DoseRate = 3.55561
PixelSpacing = 2.66
SpotSize = 6
Defocus = 0.414213
ImageShift = -0.131401 0.0883354
RotationAngle = 174.25
ExposureTime = 2.6
Binning = 1
CameraIndex = 0
DividedBy2 = 0
OperatingMode = 1
MagIndex = 28
LowDoseConSet = 4
CountsPerElectron = 38
TargetDefocus = -3.5
PriorRecordDose = 0.00992883
SubFramePath = X:\Users\BioEMlab\Jarek\Jarek 02052023\raw\agro-1_130_000_-10.0.tif
NumSubFrames = 26
FrameDosesAndNumber = 0.1186 26
DateTime = 03-May-23  13:28:10
FilterSlitAndLoss = 20 0

[ZValue = 20]
MinMaxMean = 0 24040 304.611
TiltAngle = -7.00314
StagePosition = 4.97454 -299.383
StageZ = -5.84656
Magnification = 53000
Intensity = 0.134968
ExposureDose = 3.08367
DoseRate = 3.563
PixelSpacing = 2.66
SpotSize = 6
Defocus = 0.0270553
ImageShift = -0.0256165 -0.120935
RotationAngle = 174.25
ExposureTime = 2.6
Binning = 1
CameraIndex = 0
DividedBy2 = 0
OperatingMode = 1
MagIndex = 28
LowDoseConSet = 4
CountsPerElectron = 38
TargetDefocus = -3.5
PriorRecordDose = 3.0936
SubFramePath = X:\Users\BioEMlab\Jarek\Jarek 02052023\raw\agro-1_130_001_-7.0.tif
NumSubFrames = 26
FrameDosesAndNumber = 0.1186 26
DateTime = 03-May-23  13:28:50
FilterSlitAndLoss = 20 0

[ZValue = 21]
MinMaxMean = 0 17812 302.612
TiltAngle = -4.00351
StagePosition = 4.9687 -299.4
StageZ = -5.84656
Magnification = 53000
Intensity = 0.134968
ExposureDose = 3.08367
DoseRate = 3.52735
PixelSpacing = 2.66
SpotSize = 6
Defocus = -0.196528
ImageShift = -0.0521617 -0.0951182
RotationAngle = 174.25
ExposureTime = 2.6
Binning = 1
CameraIndex = 0
DividedBy2 = 0
OperatingMode = 1
MagIndex = 28
LowDoseConSet = 4
CountsPerElectron = 38
TargetDefocus = -3.5
PriorRecordDose = 6.17727
SubFramePath = X:\Users\BioEMlab\Jarek\Jarek 02052023\raw\agro-1_130_002_-4.0.tif
NumSubFrames = 26
FrameDosesAndNumber = 0.1186 26
DateTime = 03-May-23  13:29:29
FilterSlitAndLoss = 20 0

[ZValue = 22]
MinMaxMean = 0 18090 301.251
TiltAngle = -0.999378
StagePosition = 4.97162 -299.377
StageZ = -5.84656
Magnification = 53000
Intensity = 0.134968
ExposureDose = 3.08367
DoseRate = 3.51036
PixelSpacing = 2.66
SpotSize = 6
Defocus = -0.378533
ImageShift = -0.0682513 -0.0685452
RotationAngle = 174.25
ExposureTime = 2.6
Binning = 1
CameraIndex = 0
DividedBy2 = 0
OperatingMode = 1
MagIndex = 28
LowDoseConSet = 4
CountsPerElectron = 38
TargetDefocus = -3.5
PriorRecordDose = 9.26094
SubFramePath = X:\Users\BioEMlab\Jarek\Jarek 02052023\raw\agro-1_130_003_-1.0.tif
NumSubFrames = 26
FrameDosesAndNumber = 0.1186 26
DateTime = 03-May-23  13:30:13
FilterSlitAndLoss = 20 0

[ZValue = 23]
MinMaxMean = 0 17979 295.657
TiltAngle = 1.99976
StagePosition = 4.95994 -299.426
StageZ = -5.84656
Magnification = 53000
Intensity = 0.134968
ExposureDose = 3.08367
DoseRate = 3.44819
PixelSpacing = 2.66
SpotSize = 6
Defocus = -0.413507
ImageShift = -0.106023 -0.00375434
RotationAngle = 174.25
ExposureTime = 2.6
Binning = 1
CameraIndex = 0
DividedBy2 = 0
OperatingMode = 1
MagIndex = 28
LowDoseConSet = 4
CountsPerElectron = 38
TargetDefocus = -3.5
PriorRecordDose = 21.5956
SubFramePath = X:\Users\BioEMlab\Jarek\Jarek 02052023\raw\agro-1_130_007_2.0.tif
NumSubFrames = 26
FrameDosesAndNumber = 0.1186 26
DateTime = 03-May-23  13:32:56
FilterSlitAndLoss = 20 0

[ZValue = 24]
MinMaxMean = 0 22719 296.594
TiltAngle = 4.99589
StagePosition = 4.97064 -299.371
StageZ = -5.84724
Magnification = 53000
Intensity = 0.134968
ExposureDose = 3.08367
DoseRate = 3.45237
PixelSpacing = 2.66
SpotSize = 6
Defocus = -0.542051
ImageShift = 0.0633902 -0.15678
RotationAngle = 174.25
ExposureTime = 2.6
Binning = 1
CameraIndex = 0
DividedBy2 = 0
OperatingMode = 1
MagIndex = 28
LowDoseConSet = 4
CountsPerElectron = 38
TargetDefocus = -3.5
PriorRecordDose = 24.6793
SubFramePath = X:\Users\BioEMlab\Jarek\Jarek 02052023\raw\agro-1_130_008_5.0.tif
NumSubFrames = 26
FrameDosesAndNumber = 0.1186 26
DateTime = 03-May-23  13:33:36
FilterSlitAndLoss = 20 0

[ZValue = 25]
MinMaxMean = 0 18367 290.295
TiltAngle = 7.99752
StagePosition = 4.96772 -299.407
StageZ = -5.8486
Magnification = 53000
Intensity = 0.134968
ExposureDose = 3.08367
DoseRate = 3.36383
PixelSpacing = 2.66
SpotSize = 6
Defocus = -0.750095
ImageShift = 0.006383 -0.0621873
RotationAngle = 174.25
ExposureTime = 2.6
Binning = 1
CameraIndex = 0
DividedBy2 = 0
OperatingMode = 1
MagIndex = 28
LowDoseConSet = 4
CountsPerElectron = 38
TargetDefocus = -3.5
PriorRecordDose = 28.9483
SubFramePath = X:\Users\BioEMlab\Jarek\Jarek 02052023\raw\agro-1_130_009_8.0.tif
NumSubFrames = 26
FrameDosesAndNumber = 0.1186 26
DateTime = 03-May-23  13:34:29
FilterSlitAndLoss = 20 0

[ZValue = 26]
MinMaxMean = 0 23396 285.896
TiltAngle = 10.9987
StagePosition = 4.95312 -299.427
StageZ = -5.84927
Magnification = 53000
Intensity = 0.134968
ExposureDose = 3.08367
DoseRate = 3.32446
PixelSpacing = 2.66
SpotSize = 6
Defocus = -0.986402
ImageShift = 0.038737 -0.0448277
RotationAngle = 174.25
ExposureTime = 2.6
Binning = 1
CameraIndex = 0
DividedBy2 = 0
OperatingMode = 1
MagIndex = 28
LowDoseConSet = 4
CountsPerElectron = 38
TargetDefocus = -3.5
PriorRecordDose = 41.2829
SubFramePath = X:\Users\BioEMlab\Jarek\Jarek 02052023\raw\agro-1_130_013_11.0.tif
NumSubFrames = 26
FrameDosesAndNumber = 0.1186 26
DateTime = 03-May-23  13:37:21
FilterSlitAndLoss = 20 0

[ZValue = 27]
MinMaxMean = 0 17498 280.454
TiltAngle = 13.9988
StagePosition = 4.96772 -299.372
StageZ = -5.84995
Magnification = 53000
Intensity = 0.134968
ExposureDose = 3.08367
DoseRate = 3.24964
PixelSpacing = 2.66
SpotSize = 6
Defocus = -1.19161
ImageShift = 0.108896 -0.163378
RotationAngle = 174.25
ExposureTime = 2.6
Binning = 1
CameraIndex = 0
DividedBy2 = 0
OperatingMode = 1
MagIndex = 28
LowDoseConSet = 4
CountsPerElectron = 38
TargetDefocus = -3.5
PriorRecordDose = 44.3666
SubFramePath = X:\Users\BioEMlab\Jarek\Jarek 02052023\raw\agro-1_130_014_14.0.tif
NumSubFrames = 26
FrameDosesAndNumber = 0.1186 26
DateTime = 03-May-23  13:38:01
FilterSlitAndLoss = 20 0

[ZValue = 28]
MinMaxMean = 0 18034 274.494
TiltAngle = 16.9974
StagePosition = 4.9648 -299.413
StageZ = -5.85063
Magnification = 53000
Intensity = 0.134968
ExposureDose = 3.08367
DoseRate = 3.17785
PixelSpacing = 2.66
SpotSize = 6
Defocus = -1.42312
ImageShift = 0.146832 -0.247758
RotationAngle = 174.25
ExposureTime = 2.6
Binning = 1
CameraIndex = 0
DividedBy2 = 0
OperatingMode = 1
MagIndex = 28
LowDoseConSet = 4
CountsPerElectron = 38
TargetDefocus = -3.5
PriorRecordDose = 47.4503
SubFramePath = X:\Users\BioEMlab\Jarek\Jarek 02052023\raw\agro-1_130_015_17.0.tif
NumSubFrames = 26
FrameDosesAndNumber = 0.1186 26
DateTime = 03-May-23  13:38:42
FilterSlitAndLoss = 20 0

[ZValue = 29]
MinMaxMean = 0 17923 268.237
TiltAngle = 19.9956
StagePosition = 4.96967 -299.372
StageZ = -5.85131
Magnification = 53000
Intensity = 0.134968
ExposureDose = 3.08367
DoseRate = 3.11286
PixelSpacing = 2.66
SpotSize = 6
Defocus = -1.67947
ImageShift = 0.164493 -0.273866
RotationAngle = 174.25
ExposureTime = 2.6
Binning = 1
CameraIndex = 0
DividedBy2 = 0
OperatingMode = 1
MagIndex = 28
LowDoseConSet = 4
CountsPerElectron = 38
TargetDefocus = -3.5
PriorRecordDose = 50.5339
SubFramePath = X:\Users\BioEMlab\Jarek\Jarek 02052023\raw\agro-1_130_016_20.0.tif
NumSubFrames = 26
FrameDosesAndNumber = 0.1186 26
DateTime = 03-May-23  13:39:29
FilterSlitAndLoss = 20 0

[ZValue = 30]
MinMaxMean = 0 18848 261.131
TiltAngle = 22.9927
StagePosition = 4.95215 -299.423
StageZ = -5.85267
Magnification = 53000
Intensity = 0.134968
ExposureDose = 3.08367
DoseRate = 3.0176
PixelSpacing = 2.66
SpotSize = 6
Defocus = -1.95363
ImageShift = 0.156375 -0.199108
RotationAngle = 174.25
ExposureTime = 2.6
Binning = 1
CameraIndex = 0
DividedBy2 = 0
OperatingMode = 1
MagIndex = 28
LowDoseConSet = 4
CountsPerElectron = 38
TargetDefocus = -3.5
PriorRecordDose = 65.9523
SubFramePath = X:\Users\BioEMlab\Jarek\Jarek 02052023\raw\agro-1_130_021_23.0.tif
NumSubFrames = 26
FrameDosesAndNumber = 0.1186 26
DateTime = 03-May-23  13:43:04
FilterSlitAndLoss = 20 0

[ZValue = 31]
MinMaxMean = 0 18275 253.716
TiltAngle = 25.9943
StagePosition = 4.96286 -299.373
StageZ = -5.85335
Magnification = 53000
Intensity = 0.134968
ExposureDose = 3.08367
DoseRate = 2.91844
PixelSpacing = 2.66
SpotSize = 6
Defocus = -2.27434
ImageShift = 0.217639 -0.280647
RotationAngle = 174.25
ExposureTime = 2.6
Binning = 1
CameraIndex = 0
DividedBy2 = 0
OperatingMode = 1
MagIndex = 28
LowDoseConSet = 4
CountsPerElectron = 38
TargetDefocus = -3.5
PriorRecordDose = 69.036
SubFramePath = X:\Users\BioEMlab\Jarek\Jarek 02052023\raw\agro-1_130_022_26.0.tif
NumSubFrames = 26
FrameDosesAndNumber = 0.1186 26
DateTime = 03-May-23  13:43:45
FilterSlitAndLoss = 20 0

[ZValue = 32]
MinMaxMean = 0 18497 245.578
TiltAngle = 28.9969
StagePosition = 4.96188 -299.402
StageZ = -5.85403
Magnification = 53000
Intensity = 0.134968
ExposureDose = 3.08367
DoseRate = 2.80438
PixelSpacing = 2.66
SpotSize = 6
Defocus = -2.47972
ImageShift = 0.259085 -0.353985
RotationAngle = 174.25
ExposureTime = 2.6
Binning = 1
CameraIndex = 0
DividedBy2 = 0
OperatingMode = 1
MagIndex = 28
LowDoseConSet = 4
CountsPerElectron = 38
TargetDefocus = -3.5
PriorRecordDose = 72.1196
SubFramePath = X:\Users\BioEMlab\Jarek\Jarek 02052023\raw\agro-1_130_023_29.0.tif
NumSubFrames = 26
FrameDosesAndNumber = 0.1186 26
DateTime = 03-May-23  13:44:26
FilterSlitAndLoss = 20 0

[ZValue = 33]
MinMaxMean = 0 18108 239.881
TiltAngle = 31.9971
StagePosition = 4.96675 -299.376
StageZ = -5.85403
Magnification = 53000
Intensity = 0.134968
ExposureDose = 3.08367
DoseRate = 2.75363
PixelSpacing = 2.66
SpotSize = 6
Defocus = -2.78834
ImageShift = 0.282273 -0.393805
RotationAngle = 174.25
ExposureTime = 2.6
Binning = 1
CameraIndex = 0
DividedBy2 = 0
OperatingMode = 1
MagIndex = 28
LowDoseConSet = 4
CountsPerElectron = 38
TargetDefocus = -3.5
PriorRecordDose = 75.2033
SubFramePath = X:\Users\BioEMlab\Jarek\Jarek 02052023\raw\agro-1_130_024_32.0.tif
NumSubFrames = 26
FrameDosesAndNumber = 0.1186 26
DateTime = 03-May-23  13:45:00
FilterSlitAndLoss = 20 0

[ZValue = 34]
MinMaxMean = 0 18182 231.566
TiltAngle = 34.9957
StagePosition = 4.96383 -299.396
StageZ = -5.85539
Magnification = 53000
Intensity = 0.134968
ExposureDose = 3.08367
DoseRate = 2.64216
PixelSpacing = 2.66
SpotSize = 6
Defocus = -3.10556
ImageShift = 0.353329 -0.47722
RotationAngle = 174.25
ExposureTime = 2.6
Binning = 1
CameraIndex = 0
DividedBy2 = 0
OperatingMode = 1
MagIndex = 28
LowDoseConSet = 4
CountsPerElectron = 38
TargetDefocus = -3.5
PriorRecordDose = 78.287
SubFramePath = X:\Users\BioEMlab\Jarek\Jarek 02052023\raw\agro-1_130_025_35.0.tif
NumSubFrames = 26
FrameDosesAndNumber = 0.1186 26
DateTime = 03-May-23  13:45:42
FilterSlitAndLoss = 20 0

[ZValue = 35]
MinMaxMean = 0 18238 239.968
TiltAngle = 37.9858
StagePosition = 4.9687 -299.371
StageZ = -5.85742
Magnification = 53000
Intensity = 0.134968
ExposureDose = 3.08367
DoseRate = 2.75889
PixelSpacing = 2.66
SpotSize = 6
Defocus = -2.83616
ImageShift = 0.991291 0.237931
RotationAngle = 174.25
ExposureTime = 2.6
Binning = 1
CameraIndex = 0
DividedBy2 = 0
OperatingMode = 1
MagIndex = 28
LowDoseConSet = 4
CountsPerElectron = 38
TargetDefocus = -3.5
PriorRecordDose = 97.9743
SubFramePath = X:\Users\BioEMlab\Jarek\Jarek 02052023\raw\agro-1_130_034_38.0.tif
NumSubFrames = 26
FrameDosesAndNumber = 0.1186 26
DateTime = 03-May-23  13:51:08
FilterSlitAndLoss = 20 0

[ZValue = 36]
MinMaxMean = 0 18531 302.947
TiltAngle = 40.9965
StagePosition = 4.97162 -299.399
StageZ = -5.85742
Magnification = 53000
Intensity = 0.134968
ExposureDose = 3.08367
DoseRate = 3.53702
PixelSpacing = 2.66
SpotSize = 6
Defocus = 6.70935
ImageShift = 0.113053 0.517016
RotationAngle = 174.25
ExposureTime = 2.6
Binning = 1
CameraIndex = 0
DividedBy2 = 0
OperatingMode = 1
MagIndex = 28
LowDoseConSet = 4
CountsPerElectron = 38
TargetDefocus = -3.5
PriorRecordDose = 102.243
SubFramePath = X:\Users\BioEMlab\Jarek\Jarek 02052023\raw\agro-1_130_036_41.0.tif
NumSubFrames = 26
FrameDosesAndNumber = 0.1186 26
DateTime = 03-May-23  13:52:14
FilterSlitAndLoss = 20 0

[ZValue = 37]
MinMaxMean = 0 18127 322.631
TiltAngle = 43.9936
StagePosition = 4.96675 -299.375
StageZ = -5.8581
Magnification = 53000
Intensity = 0.134968
ExposureDose = 3.08367
DoseRate = 3.78183
PixelSpacing = 2.66
SpotSize = 6
Defocus = 8.65954
ImageShift = -0.777289 0.463078
RotationAngle = 174.25
ExposureTime = 2.6
Binning = 1
CameraIndex = 0
DividedBy2 = 0
OperatingMode = 1
MagIndex = 28
LowDoseConSet = 4
CountsPerElectron = 38
TargetDefocus = -3.5
PriorRecordDose = 106.512
SubFramePath = X:\Users\BioEMlab\Jarek\Jarek 02052023\raw\agro-1_130_038_44.0.tif
NumSubFrames = 26
FrameDosesAndNumber = 0.1186 26
DateTime = 03-May-23  13:53:21
FilterSlitAndLoss = 20 0

[ZValue = 38]
MinMaxMean = 0 18349 301.208
TiltAngle = 46.9947
StagePosition = 4.96188 -299.406
StageZ = -5.8581
Magnification = 53000
Intensity = 0.134968
ExposureDose = 3.08367
DoseRate = 3.49798
PixelSpacing = 2.66
SpotSize = 6
Defocus = -10.929
ImageShift = -0.62329 0.278269
RotationAngle = 174.25
ExposureTime = 2.6
Binning = 1
CameraIndex = 0
DividedBy2 = 0
OperatingMode = 1
MagIndex = 28
LowDoseConSet = 4
CountsPerElectron = 38
TargetDefocus = -3.5
PriorRecordDose = 110.781
SubFramePath = X:\Users\BioEMlab\Jarek\Jarek 02052023\raw\agro-1_130_041_47.0.tif
NumSubFrames = 26
FrameDosesAndNumber = 0.1186 26
DateTime = 03-May-23  13:54:55
FilterSlitAndLoss = 20 0

[ZValue = 39]
MinMaxMean = 0 18589 281.468
TiltAngle = 49.9969
StagePosition = 4.96967 -299.371
StageZ = -5.85878
Magnification = 53000
Intensity = 0.134968
ExposureDose = 3.08367
DoseRate = 3.26365
PixelSpacing = 2.66
SpotSize = 6
Defocus = -16.3665
ImageShift = -0.491786 0.107969
RotationAngle = 174.25
ExposureTime = 2.6
Binning = 1
CameraIndex = 0
DividedBy2 = 0
OperatingMode = 1
MagIndex = 28
LowDoseConSet = 4
CountsPerElectron = 38
TargetDefocus = -3.5
PriorRecordDose = 115.05
SubFramePath = X:\Users\BioEMlab\Jarek\Jarek 02052023\raw\agro-1_130_043_50.0.tif
NumSubFrames = 26
FrameDosesAndNumber = 0.1186 26
DateTime = 03-May-23  13:55:51
FilterSlitAndLoss = 20 0
