PixelSpacing = 2.66
Voltage = 300
ImageFile = TS_42.mrc
ImageSize = 3708 3838
DataMode = 6

[T = SerialEM: Digitized by Gatan K2 Summit on Titan Krios D 03-May-23  14:33:17    ]

[T =     Tilt axis angle = 84.3, binning = 1  spot = 6  camera = 0 bidir = -10.0]

[ZValue = 0]
MinMaxMean = 0 17923 119.155
TiltAngle = -60.999
StagePosition = 3.36275 -301.342
StageZ = -5.72432
Magnification = 53000
Intensity = 0.134968
ExposureDose = 3.08367
DoseRate = 1.323
PixelSpacing = 2.66
SpotSize = 6
Defocus = 4.11071
ImageShift = 0.294074 -0.0632913
RotationAngle = 174.25
ExposureTime = 2.6
Binning = 1
CameraIndex = 0
DividedBy2 = 0
OperatingMode = 1
MagIndex = 28
LowDoseConSet = 4
CountsPerElectron = 38
TargetDefocus = -3.5
PriorRecordDose = 112.68
SubFramePath = X:\Users\BioEMlab\Jarek\Jarek 02052023\raw\agro-1_132_039_-61.0.tif
NumSubFrames = 26
FrameDosesAndNumber = 0.1186 26
DateTime = 03-May-23  14:32:23
FilterSlitAndLoss = 20 0

[ZValue = 1]
MinMaxMean = 0 20285 208.458
TiltAngle = -57.9999
StagePosition = 3.35399 -301.295
StageZ = -5.72432
Magnification = 53000
Intensity = 0.134968
ExposureDose = 3.08367
DoseRate = 2.38547
PixelSpacing = 2.66
SpotSize = 6
Defocus = 3.35847
ImageShift = 0.268913 -0.0318194
RotationAngle = 174.25
ExposureTime = 2.6
Binning = 1
CameraIndex = 0
DividedBy2 = 0
OperatingMode = 1
MagIndex = 28
LowDoseConSet = 4
CountsPerElectron = 38
TargetDefocus = -3.5
PriorRecordDose = 108.411
SubFramePath = X:\Users\BioEMlab\Jarek\Jarek 02052023\raw\agro-1_132_038_-58.0.tif
NumSubFrames = 26
FrameDosesAndNumber = 0.1186 26
DateTime = 03-May-23  14:31:33
FilterSlitAndLoss = 20 0

[ZValue = 2]
MinMaxMean = 0 18386 213.453
TiltAngle = -54.9993
StagePosition = 3.35691 -301.291
StageZ = -5.72092
Magnification = 53000
Intensity = 0.134968
ExposureDose = 3.08367
DoseRate = 2.4235
PixelSpacing = 2.66
SpotSize = 6
Defocus = 3.58561
ImageShift = 0.100218 -0.164004
RotationAngle = 174.25
ExposureTime = 2.6
Binning = 1
CameraIndex = 0
DividedBy2 = 0
OperatingMode = 1
MagIndex = 28
LowDoseConSet = 4
CountsPerElectron = 38
TargetDefocus = -3.5
PriorRecordDose = 93.7053
SubFramePath = X:\Users\BioEMlab\Jarek\Jarek 02052023\raw\agro-1_132_031_-55.0.tif
NumSubFrames = 26
FrameDosesAndNumber = 0.1186 26
DateTime = 03-May-23  14:27:18
FilterSlitAndLoss = 20 0

[ZValue = 3]
MinMaxMean = 0 18201 246.374
TiltAngle = -51.9991
StagePosition = 3.36275 -301.336
StageZ = -5.72092
Magnification = 53000
Intensity = 0.134968
ExposureDose = 3.08367
DoseRate = 2.83722
PixelSpacing = 2.66
SpotSize = 6
Defocus = 3.35365
ImageShift = 0.0232433 -0.0786174
RotationAngle = 174.25
ExposureTime = 2.6
Binning = 1
CameraIndex = 0
DividedBy2 = 0
OperatingMode = 1
MagIndex = 28
LowDoseConSet = 4
CountsPerElectron = 38
TargetDefocus = -3.5
PriorRecordDose = 90.6217
SubFramePath = X:\Users\BioEMlab\Jarek\Jarek 02052023\raw\agro-1_132_030_-52.0.tif
NumSubFrames = 26
FrameDosesAndNumber = 0.1186 26
DateTime = 03-May-23  14:26:31
FilterSlitAndLoss = 20 0

[ZValue = 4]
MinMaxMean = 0 18497 276.349
TiltAngle = -49.001
StagePosition = 3.35594 -301.295
StageZ = -5.72092
Magnification = 53000
Intensity = 0.134968
ExposureDose = 3.08367
DoseRate = 3.20553
PixelSpacing = 2.66
SpotSize = 6
Defocus = 3.07926
ImageShift = -0.00045216 -0.0567109
RotationAngle = 174.25
ExposureTime = 2.6
Binning = 1
CameraIndex = 0
DividedBy2 = 0
OperatingMode = 1
MagIndex = 28
LowDoseConSet = 4
CountsPerElectron = 38
TargetDefocus = -3.5
PriorRecordDose = 87.538
SubFramePath = X:\Users\BioEMlab\Jarek\Jarek 02052023\raw\agro-1_132_029_-49.0.tif
NumSubFrames = 26
FrameDosesAndNumber = 0.1186 26
DateTime = 03-May-23  14:25:47
FilterSlitAndLoss = 20 0

[ZValue = 5]
MinMaxMean = 0 22399 299.017
TiltAngle = -46.0039
StagePosition = 3.35691 -301.338
StageZ = -5.7216
Magnification = 53000
Intensity = 0.134968
ExposureDose = 3.08367
DoseRate = 3.47017
PixelSpacing = 2.66
SpotSize = 6
Defocus = 2.709
ImageShift = -0.0298699 -0.0239045
RotationAngle = 174.25
ExposureTime = 2.6
Binning = 1
CameraIndex = 0
DividedBy2 = 0
OperatingMode = 1
MagIndex = 28
LowDoseConSet = 4
CountsPerElectron = 38
TargetDefocus = -3.5
PriorRecordDose = 84.4543
SubFramePath = X:\Users\BioEMlab\Jarek\Jarek 02052023\raw\agro-1_132_028_-46.0.tif
NumSubFrames = 26
FrameDosesAndNumber = 0.1186 26
DateTime = 03-May-23  14:25:04
FilterSlitAndLoss = 20 0

[ZValue = 6]
MinMaxMean = 0 18386 316.203
TiltAngle = -43.0037
StagePosition = 3.34426 -301.292
StageZ = -5.7216
Magnification = 53000
Intensity = 0.134968
ExposureDose = 3.08367
DoseRate = 3.69331
PixelSpacing = 2.66
SpotSize = 6
Defocus = 2.12619
ImageShift = -0.0770371 0.0594479
RotationAngle = 174.25
ExposureTime = 2.6
Binning = 1
CameraIndex = 0
DividedBy2 = 0
OperatingMode = 1
MagIndex = 28
LowDoseConSet = 4
CountsPerElectron = 38
TargetDefocus = -3.5
PriorRecordDose = 81.3707
SubFramePath = X:\Users\BioEMlab\Jarek\Jarek 02052023\raw\agro-1_132_027_-43.0.tif
NumSubFrames = 26
FrameDosesAndNumber = 0.1186 26
DateTime = 03-May-23  14:24:21
FilterSlitAndLoss = 20 0

[ZValue = 7]
MinMaxMean = 0 17701 325.971
TiltAngle = -40.0031
StagePosition = 3.36275 -301.335
StageZ = -5.71888
Magnification = 53000
Intensity = 0.134968
ExposureDose = 3.08367
DoseRate = 3.82102
PixelSpacing = 2.66
SpotSize = 6
Defocus = 2.41253
ImageShift = -0.208441 0.184067
RotationAngle = 174.25
ExposureTime = 2.6
Binning = 1
CameraIndex = 0
DividedBy2 = 0
OperatingMode = 1
MagIndex = 28
LowDoseConSet = 4
CountsPerElectron = 38
TargetDefocus = -3.5
PriorRecordDose = 62.8686
SubFramePath = X:\Users\BioEMlab\Jarek\Jarek 02052023\raw\agro-1_132_020_-40.0.tif
NumSubFrames = 26
FrameDosesAndNumber = 0.1186 26
DateTime = 03-May-23  14:19:32
FilterSlitAndLoss = 20 0

[ZValue = 8]
MinMaxMean = 0 18182 331.631
TiltAngle = -37.004
StagePosition = 3.35302 -301.29
StageZ = -5.71888
Magnification = 53000
Intensity = 0.134968
ExposureDose = 3.08367
DoseRate = 3.88065
PixelSpacing = 2.66
SpotSize = 6
Defocus = 2.15569
ImageShift = -0.237965 0.230521
RotationAngle = 174.25
ExposureTime = 2.6
Binning = 1
CameraIndex = 0
DividedBy2 = 0
OperatingMode = 1
MagIndex = 28
LowDoseConSet = 4
CountsPerElectron = 38
TargetDefocus = -3.5
PriorRecordDose = 59.785
SubFramePath = X:\Users\BioEMlab\Jarek\Jarek 02052023\raw\agro-1_132_019_-37.0.tif
NumSubFrames = 26
FrameDosesAndNumber = 0.1186 26
DateTime = 03-May-23  14:18:46
FilterSlitAndLoss = 20 0

[ZValue = 9]
MinMaxMean = 0 18164 336.428
TiltAngle = -34.0003
StagePosition = 3.36567 -301.331
StageZ = -5.71888
Magnification = 53000
Intensity = 0.134968
ExposureDose = 3.08367
DoseRate = 3.94702
PixelSpacing = 2.66
SpotSize = 6
Defocus = 1.99209
ImageShift = -0.288117 0.275542
RotationAngle = 174.25
ExposureTime = 2.6
Binning = 1
CameraIndex = 0
DividedBy2 = 0
OperatingMode = 1
MagIndex = 28
LowDoseConSet = 4
CountsPerElectron = 38
TargetDefocus = -3.5
PriorRecordDose = 56.7013
SubFramePath = X:\Users\BioEMlab\Jarek\Jarek 02052023\raw\agro-1_132_018_-34.0.tif
NumSubFrames = 26
FrameDosesAndNumber = 0.1186 26
DateTime = 03-May-23  14:18:03
FilterSlitAndLoss = 20 0

[ZValue = 10]
MinMaxMean = 0 17812 342.604
TiltAngle = -31.0007
StagePosition = 3.34913 -301.287
StageZ = -5.71888
Magnification = 53000
Intensity = 0.134968
ExposureDose = 3.08367
DoseRate = 4.04195
PixelSpacing = 2.66
SpotSize = 6
Defocus = 1.73439
ImageShift = -0.250942 0.25535
RotationAngle = 174.25
ExposureTime = 2.6
Binning = 1
CameraIndex = 0
DividedBy2 = 0
OperatingMode = 1
MagIndex = 28
LowDoseConSet = 4
CountsPerElectron = 38
TargetDefocus = -3.5
PriorRecordDose = 53.6176
SubFramePath = X:\Users\BioEMlab\Jarek\Jarek 02052023\raw\agro-1_132_017_-31.0.tif
NumSubFrames = 26
FrameDosesAndNumber = 0.1186 26
DateTime = 03-May-23  14:17:20
FilterSlitAndLoss = 20 0

[ZValue = 11]
MinMaxMean = 0 18441 345.625
TiltAngle = -28.0016
StagePosition = 3.35107 -301.286
StageZ = -5.71549
Magnification = 53000
Intensity = 0.134968
ExposureDose = 3.08367
DoseRate = 4.07407
PixelSpacing = 2.66
SpotSize = 6
Defocus = 1.48293
ImageShift = -0.276831 0.268911
RotationAngle = 174.25
ExposureTime = 2.6
Binning = 1
CameraIndex = 0
DividedBy2 = 0
OperatingMode = 1
MagIndex = 28
LowDoseConSet = 4
CountsPerElectron = 38
TargetDefocus = -3.5
PriorRecordDose = 38.1993
SubFramePath = X:\Users\BioEMlab\Jarek\Jarek 02052023\raw\agro-1_132_012_-28.0.tif
NumSubFrames = 26
FrameDosesAndNumber = 0.1186 26
DateTime = 03-May-23  14:13:48
FilterSlitAndLoss = 20 0

[ZValue = 12]
MinMaxMean = 0 18145 348.269
TiltAngle = -25.0024
StagePosition = 3.3608 -301.332
StageZ = -5.71549
Magnification = 53000
Intensity = 0.134968
ExposureDose = 3.08367
DoseRate = 4.11156
PixelSpacing = 2.66
SpotSize = 6
Defocus = 1.23375
ImageShift = -0.264957 0.210076
RotationAngle = 174.25
ExposureTime = 2.6
Binning = 1
CameraIndex = 0
DividedBy2 = 0
OperatingMode = 1
MagIndex = 28
LowDoseConSet = 4
CountsPerElectron = 38
TargetDefocus = -3.5
PriorRecordDose = 35.1156
SubFramePath = X:\Users\BioEMlab\Jarek\Jarek 02052023\raw\agro-1_132_011_-25.0.tif
NumSubFrames = 26
FrameDosesAndNumber = 0.1186 26
DateTime = 03-May-23  14:13:04
FilterSlitAndLoss = 20 0

[ZValue = 13]
MinMaxMean = 0 18515 351.38
TiltAngle = -21.9998
StagePosition = 3.34426 -301.282
StageZ = -5.71549
Magnification = 53000
Intensity = 0.134968
ExposureDose = 3.08367
DoseRate = 4.15812
PixelSpacing = 2.66
SpotSize = 6
Defocus = 0.900777
ImageShift = -0.196314 0.126417
RotationAngle = 174.25
ExposureTime = 2.6
Binning = 1
CameraIndex = 0
DividedBy2 = 0
OperatingMode = 1
MagIndex = 28
LowDoseConSet = 4
CountsPerElectron = 38
TargetDefocus = -3.5
PriorRecordDose = 32.0319
SubFramePath = X:\Users\BioEMlab\Jarek\Jarek 02052023\raw\agro-1_132_010_-22.0.tif
NumSubFrames = 26
FrameDosesAndNumber = 0.1186 26
DateTime = 03-May-23  14:12:21
FilterSlitAndLoss = 20 0

[ZValue = 14]
MinMaxMean = 0 18386 352.137
TiltAngle = -19.0037
StagePosition = 3.34718 -301.291
StageZ = -5.71345
Magnification = 53000
Intensity = 0.134968
ExposureDose = 3.08367
DoseRate = 4.16696
PixelSpacing = 2.66
SpotSize = 6
Defocus = 0.516262
ImageShift = -0.167645 0.0469162
RotationAngle = 174.25
ExposureTime = 2.6
Binning = 1
CameraIndex = 0
DividedBy2 = 0
OperatingMode = 1
MagIndex = 28
LowDoseConSet = 4
CountsPerElectron = 38
TargetDefocus = -3.5
PriorRecordDose = 18.5119
SubFramePath = X:\Users\BioEMlab\Jarek\Jarek 02052023\raw\agro-1_132_006_-19.0.tif
NumSubFrames = 26
FrameDosesAndNumber = 0.1186 26
DateTime = 03-May-23  14:09:30
FilterSlitAndLoss = 20 0

[ZValue = 15]
MinMaxMean = 0 17849 353.391
TiltAngle = -15.9995
StagePosition = 3.35594 -301.328
StageZ = -5.71345
Magnification = 53000
Intensity = 0.134968
ExposureDose = 3.08367
DoseRate = 4.16205
PixelSpacing = 2.66
SpotSize = 6
Defocus = 0.349679
ImageShift = -0.172258 0.0281144
RotationAngle = 174.25
ExposureTime = 2.6
Binning = 1
CameraIndex = 0
DividedBy2 = 0
OperatingMode = 1
MagIndex = 28
LowDoseConSet = 4
CountsPerElectron = 38
TargetDefocus = -3.5
PriorRecordDose = 15.4283
SubFramePath = X:\Users\BioEMlab\Jarek\Jarek 02052023\raw\agro-1_132_005_-16.0.tif
NumSubFrames = 26
FrameDosesAndNumber = 0.1186 26
DateTime = 03-May-23  14:08:47
FilterSlitAndLoss = 20 0

[ZValue = 16]
MinMaxMean = 0 17979 353.713
TiltAngle = -13.0009
StagePosition = 3.34815 -301.287
StageZ = -5.71345
Magnification = 53000
Intensity = 0.134968
ExposureDose = 3.08367
DoseRate = 4.17524
PixelSpacing = 2.66
SpotSize = 6
Defocus = 0.214683
ImageShift = -0.150823 -0.0110389
RotationAngle = 174.25
ExposureTime = 2.6
Binning = 1
CameraIndex = 0
DividedBy2 = 0
OperatingMode = 1
MagIndex = 28
LowDoseConSet = 4
CountsPerElectron = 38
TargetDefocus = -3.5
PriorRecordDose = 12.3446
SubFramePath = X:\Users\BioEMlab\Jarek\Jarek 02052023\raw\agro-1_132_004_-13.0.tif
NumSubFrames = 26
FrameDosesAndNumber = 0.1186 26
DateTime = 03-May-23  14:08:04
FilterSlitAndLoss = 20 0

[ZValue = 17]
MinMaxMean = 0 18977 353.372
TiltAngle = -10.0003
StagePosition = 3.35497 -301.325
StageZ = -5.71277
Magnification = 53000
Intensity = 0.134968
ExposureDose = 3.08367
DoseRate = 4.1701
PixelSpacing = 2.66
SpotSize = 6
Defocus = 0.51521
ImageShift = -0.190226 0.0321811
RotationAngle = 174.25
ExposureTime = 2.6
Binning = 1
CameraIndex = 0
DividedBy2 = 0
OperatingMode = 1
MagIndex = 28
LowDoseConSet = 4
CountsPerElectron = 38
TargetDefocus = -3.5
PriorRecordDose = 0.00992883
SubFramePath = X:\Users\BioEMlab\Jarek\Jarek 02052023\raw\agro-1_132_000_-10.0.tif
NumSubFrames = 26
FrameDosesAndNumber = 0.1186 26
DateTime = 03-May-23  14:05:19
FilterSlitAndLoss = 20 0

[ZValue = 18]
MinMaxMean = 0 18275 350.711
TiltAngle = -7.00564
StagePosition = 3.35886 -301.313
StageZ = -5.71277
Magnification = 53000
Intensity = 0.134968
ExposureDose = 3.08367
DoseRate = 4.12913
PixelSpacing = 2.66
SpotSize = 6
Defocus = -0.0805832
ImageShift = -0.0942757 -0.168708
RotationAngle = 174.25
ExposureTime = 2.6
Binning = 1
CameraIndex = 0
DividedBy2 = 0
OperatingMode = 1
MagIndex = 28
LowDoseConSet = 4
CountsPerElectron = 38
TargetDefocus = -3.5
PriorRecordDose = 3.0936
SubFramePath = X:\Users\BioEMlab\Jarek\Jarek 02052023\raw\agro-1_132_001_-7.0.tif
NumSubFrames = 26
FrameDosesAndNumber = 0.1186 26
DateTime = 03-May-23  14:05:59
FilterSlitAndLoss = 20 0

[ZValue = 19]
MinMaxMean = 0 18090 350.457
TiltAngle = -4.00101
StagePosition = 3.35302 -301.329
StageZ = -5.71345
Magnification = 53000
Intensity = 0.134968
ExposureDose = 3.08367
DoseRate = 4.11973
PixelSpacing = 2.66
SpotSize = 6
Defocus = -0.351075
ImageShift = -0.0994675 -0.175897
RotationAngle = 174.25
ExposureTime = 2.6
Binning = 1
CameraIndex = 0
DividedBy2 = 0
OperatingMode = 1
MagIndex = 28
LowDoseConSet = 4
CountsPerElectron = 38
TargetDefocus = -3.5
PriorRecordDose = 6.17727
SubFramePath = X:\Users\BioEMlab\Jarek\Jarek 02052023\raw\agro-1_132_002_-4.0.tif
NumSubFrames = 26
FrameDosesAndNumber = 0.1186 26
DateTime = 03-May-23  14:06:38
FilterSlitAndLoss = 20 0

[ZValue = 20]
MinMaxMean = 0 18145 350.892
TiltAngle = -0.999878
StagePosition = 3.35594 -301.306
StageZ = -5.71345
Magnification = 53000
Intensity = 0.134968
ExposureDose = 3.08367
DoseRate = 4.15091
PixelSpacing = 2.66
SpotSize = 6
Defocus = -0.52671
ImageShift = -0.102484 -0.172312
RotationAngle = 174.25
ExposureTime = 2.6
Binning = 1
CameraIndex = 0
DividedBy2 = 0
OperatingMode = 1
MagIndex = 28
LowDoseConSet = 4
CountsPerElectron = 38
TargetDefocus = -3.5
PriorRecordDose = 9.26094
SubFramePath = X:\Users\BioEMlab\Jarek\Jarek 02052023\raw\agro-1_132_003_-1.0.tif
NumSubFrames = 26
FrameDosesAndNumber = 0.1186 26
DateTime = 03-May-23  14:07:21
FilterSlitAndLoss = 20 0

[ZValue = 21]
MinMaxMean = 0 18090 348.266
TiltAngle = 1.99726
StagePosition = 3.34426 -301.351
StageZ = -5.71345
Magnification = 53000
Intensity = 0.134968
ExposureDose = 3.08367
DoseRate = 4.10935
PixelSpacing = 2.66
SpotSize = 6
Defocus = -0.641208
ImageShift = -0.119083 -0.142839
RotationAngle = 174.25
ExposureTime = 2.6
Binning = 1
CameraIndex = 0
DividedBy2 = 0
OperatingMode = 1
MagIndex = 28
LowDoseConSet = 4
CountsPerElectron = 38
TargetDefocus = -3.5
PriorRecordDose = 21.5956
SubFramePath = X:\Users\BioEMlab\Jarek\Jarek 02052023\raw\agro-1_132_007_2.0.tif
NumSubFrames = 26
FrameDosesAndNumber = 0.1186 26
DateTime = 03-May-23  14:10:04
FilterSlitAndLoss = 20 0

[ZValue = 22]
MinMaxMean = 0 17757 345.583
TiltAngle = 4.99589
StagePosition = 3.35205 -301.296
StageZ = -5.71481
Magnification = 53000
Intensity = 0.134968
ExposureDose = 3.08367
DoseRate = 4.07392
PixelSpacing = 2.66
SpotSize = 6
Defocus = -0.769969
ImageShift = -0.0399924 -0.26584
RotationAngle = 174.25
ExposureTime = 2.6
Binning = 1
CameraIndex = 0
DividedBy2 = 0
OperatingMode = 1
MagIndex = 28
LowDoseConSet = 4
CountsPerElectron = 38
TargetDefocus = -3.5
PriorRecordDose = 24.6793
SubFramePath = X:\Users\BioEMlab\Jarek\Jarek 02052023\raw\agro-1_132_008_5.0.tif
NumSubFrames = 26
FrameDosesAndNumber = 0.1186 26
DateTime = 03-May-23  14:10:45
FilterSlitAndLoss = 20 0

[ZValue = 23]
MinMaxMean = 0 18145 346.464
TiltAngle = 7.99552
StagePosition = 3.35205 -301.335
StageZ = -5.71481
Magnification = 53000
Intensity = 0.134968
ExposureDose = 3.08367
DoseRate = 4.0908
PixelSpacing = 2.66
SpotSize = 6
Defocus = -0.896837
ImageShift = -0.10019 -0.168003
RotationAngle = 174.25
ExposureTime = 2.6
Binning = 1
CameraIndex = 0
DividedBy2 = 0
OperatingMode = 1
MagIndex = 28
LowDoseConSet = 4
CountsPerElectron = 38
TargetDefocus = -3.5
PriorRecordDose = 28.9483
SubFramePath = X:\Users\BioEMlab\Jarek\Jarek 02052023\raw\agro-1_132_009_8.0.tif
NumSubFrames = 26
FrameDosesAndNumber = 0.1186 26
DateTime = 03-May-23  14:11:38
FilterSlitAndLoss = 20 0

[ZValue = 24]
MinMaxMean = 0 18515 343.432
TiltAngle = 10.9987
StagePosition = 3.33647 -301.354
StageZ = -5.71549
Magnification = 53000
Intensity = 0.134968
ExposureDose = 3.08367
DoseRate = 4.04586
PixelSpacing = 2.66
SpotSize = 6
Defocus = -1.10961
ImageShift = -0.0900638 -0.133968
RotationAngle = 174.25
ExposureTime = 2.6
Binning = 1
CameraIndex = 0
DividedBy2 = 0
OperatingMode = 1
MagIndex = 28
LowDoseConSet = 4
CountsPerElectron = 38
TargetDefocus = -3.5
PriorRecordDose = 41.2829
SubFramePath = X:\Users\BioEMlab\Jarek\Jarek 02052023\raw\agro-1_132_013_11.0.tif
NumSubFrames = 26
FrameDosesAndNumber = 0.1186 26
DateTime = 03-May-23  14:14:29
FilterSlitAndLoss = 20 0

[ZValue = 25]
MinMaxMean = 0 17664 339.976
TiltAngle = 14.0003
StagePosition = 3.35205 -301.3
StageZ = -5.71752
Magnification = 53000
Intensity = 0.134968
ExposureDose = 3.08367
DoseRate = 3.99084
PixelSpacing = 2.66
SpotSize = 6
Defocus = -1.24224
ImageShift = -0.0200237 -0.255415
RotationAngle = 174.25
ExposureTime = 2.6
Binning = 1
CameraIndex = 0
DividedBy2 = 0
OperatingMode = 1
MagIndex = 28
LowDoseConSet = 4
CountsPerElectron = 38
TargetDefocus = -3.5
PriorRecordDose = 44.3666
SubFramePath = X:\Users\BioEMlab\Jarek\Jarek 02052023\raw\agro-1_132_014_14.0.tif
NumSubFrames = 26
FrameDosesAndNumber = 0.1186 26
DateTime = 03-May-23  14:15:10
FilterSlitAndLoss = 20 0

[ZValue = 26]
MinMaxMean = 0 18053 335.886
TiltAngle = 16.9959
StagePosition = 3.3501 -301.332
StageZ = -5.7182
Magnification = 53000
Intensity = 0.134968
ExposureDose = 3.08367
DoseRate = 3.92828
PixelSpacing = 2.66
SpotSize = 6
Defocus = -1.44172
ImageShift = 0.0197512 -0.344101
RotationAngle = 174.25
ExposureTime = 2.6
Binning = 1
CameraIndex = 0
DividedBy2 = 0
OperatingMode = 1
MagIndex = 28
LowDoseConSet = 4
CountsPerElectron = 38
TargetDefocus = -3.5
PriorRecordDose = 47.4503
SubFramePath = X:\Users\BioEMlab\Jarek\Jarek 02052023\raw\agro-1_132_015_17.0.tif
NumSubFrames = 26
FrameDosesAndNumber = 0.1186 26
DateTime = 03-May-23  14:15:50
FilterSlitAndLoss = 20 0

[ZValue = 27]
MinMaxMean = 0 17886 330.576
TiltAngle = 19.9941
StagePosition = 3.35302 -301.299
StageZ = -5.71888
Magnification = 53000
Intensity = 0.134968
ExposureDose = 3.08367
DoseRate = 3.87668
PixelSpacing = 2.66
SpotSize = 6
Defocus = -1.63616
ImageShift = 0.0472321 -0.386457
RotationAngle = 174.25
ExposureTime = 2.6
Binning = 1
CameraIndex = 0
DividedBy2 = 0
OperatingMode = 1
MagIndex = 28
LowDoseConSet = 4
CountsPerElectron = 38
TargetDefocus = -3.5
PriorRecordDose = 50.5339
SubFramePath = X:\Users\BioEMlab\Jarek\Jarek 02052023\raw\agro-1_132_016_20.0.tif
NumSubFrames = 26
FrameDosesAndNumber = 0.1186 26
DateTime = 03-May-23  14:16:37
FilterSlitAndLoss = 20 0

[ZValue = 28]
MinMaxMean = 0 22973 323.28
TiltAngle = 22.9937
StagePosition = 3.34037 -301.353
StageZ = -5.72024
Magnification = 53000
Intensity = 0.134968
ExposureDose = 3.08367
DoseRate = 3.78778
PixelSpacing = 2.66
SpotSize = 6
Defocus = -1.94838
ImageShift = 0.0632335 -0.359794
RotationAngle = 174.25
ExposureTime = 2.6
Binning = 1
CameraIndex = 0
DividedBy2 = 0
OperatingMode = 1
MagIndex = 28
LowDoseConSet = 4
CountsPerElectron = 38
TargetDefocus = -3.5
PriorRecordDose = 65.9523
SubFramePath = X:\Users\BioEMlab\Jarek\Jarek 02052023\raw\agro-1_132_021_23.0.tif
NumSubFrames = 26
FrameDosesAndNumber = 0.1186 26
DateTime = 03-May-23  14:20:13
FilterSlitAndLoss = 20 0

[ZValue = 29]
MinMaxMean = 0 18672 316.124
TiltAngle = 25.9918
StagePosition = 3.34913 -301.288
StageZ = -5.7216
Magnification = 53000
Intensity = 0.134968
ExposureDose = 3.08367
DoseRate = 3.68481
PixelSpacing = 2.66
SpotSize = 6
Defocus = -2.07668
ImageShift = 0.141987 -0.438976
RotationAngle = 174.25
ExposureTime = 2.6
Binning = 1
CameraIndex = 0
DividedBy2 = 0
OperatingMode = 1
MagIndex = 28
LowDoseConSet = 4
CountsPerElectron = 38
TargetDefocus = -3.5
PriorRecordDose = 69.036
SubFramePath = X:\Users\BioEMlab\Jarek\Jarek 02052023\raw\agro-1_132_023_26.0.tif
NumSubFrames = 26
FrameDosesAndNumber = 0.1186 26
DateTime = 03-May-23  14:21:30
FilterSlitAndLoss = 20 0

[ZValue = 30]
MinMaxMean = 0 18182 307.217
TiltAngle = 28.9959
StagePosition = 3.35788 -301.329
StageZ = -5.7216
Magnification = 53000
Intensity = 0.134968
ExposureDose = 3.08367
DoseRate = 3.58996
PixelSpacing = 2.66
SpotSize = 6
Defocus = -2.25722
ImageShift = 0.153066 -0.495447
RotationAngle = 174.25
ExposureTime = 2.6
Binning = 1
CameraIndex = 0
DividedBy2 = 0
OperatingMode = 1
MagIndex = 28
LowDoseConSet = 4
CountsPerElectron = 38
TargetDefocus = -3.5
PriorRecordDose = 72.1196
SubFramePath = X:\Users\BioEMlab\Jarek\Jarek 02052023\raw\agro-1_132_024_29.0.tif
NumSubFrames = 26
FrameDosesAndNumber = 0.1186 26
DateTime = 03-May-23  14:22:10
FilterSlitAndLoss = 20 0

[ZValue = 31]
MinMaxMean = 0 18663 298.104
TiltAngle = 31.9961
StagePosition = 3.35205 -301.299
StageZ = -5.7216
Magnification = 53000
Intensity = 0.134968
ExposureDose = 3.08367
DoseRate = 3.4684
PixelSpacing = 2.66
SpotSize = 6
Defocus = -2.55121
ImageShift = 0.217132 -0.576299
RotationAngle = 174.25
ExposureTime = 2.6
Binning = 1
CameraIndex = 0
DividedBy2 = 0
OperatingMode = 1
MagIndex = 28
LowDoseConSet = 4
CountsPerElectron = 38
TargetDefocus = -3.5
PriorRecordDose = 75.2033
SubFramePath = X:\Users\BioEMlab\Jarek\Jarek 02052023\raw\agro-1_132_025_32.0.tif
NumSubFrames = 26
FrameDosesAndNumber = 0.1186 26
DateTime = 03-May-23  14:22:50
FilterSlitAndLoss = 20 0

[ZValue = 32]
MinMaxMean = 0 26070 286.022
TiltAngle = 34.9952
StagePosition = 3.35399 -301.326
StageZ = -5.72228
Magnification = 53000
Intensity = 0.134968
ExposureDose = 3.08367
DoseRate = 3.31695
PixelSpacing = 2.66
SpotSize = 6
Defocus = -2.76263
ImageShift = 0.280726 -0.673326
RotationAngle = 174.25
ExposureTime = 2.6
Binning = 1
CameraIndex = 0
DividedBy2 = 0
OperatingMode = 1
MagIndex = 28
LowDoseConSet = 4
CountsPerElectron = 38
TargetDefocus = -3.5
PriorRecordDose = 78.287
SubFramePath = X:\Users\BioEMlab\Jarek\Jarek 02052023\raw\agro-1_132_026_35.0.tif
NumSubFrames = 26
FrameDosesAndNumber = 0.1186 26
DateTime = 03-May-23  14:23:38
FilterSlitAndLoss = 20 0

[ZValue = 33]
MinMaxMean = 0 28205 274.259
TiltAngle = 37.9923
StagePosition = 3.33842 -301.356
StageZ = -5.725
Magnification = 53000
Intensity = 0.134968
ExposureDose = 3.08367
DoseRate = 3.1814
PixelSpacing = 2.66
SpotSize = 6
Defocus = -3.18028
ImageShift = 0.272388 -0.598223
RotationAngle = 174.25
ExposureTime = 2.6
Binning = 1
CameraIndex = 0
DividedBy2 = 0
OperatingMode = 1
MagIndex = 28
LowDoseConSet = 4
CountsPerElectron = 38
TargetDefocus = -3.5
PriorRecordDose = 96.789
SubFramePath = X:\Users\BioEMlab\Jarek\Jarek 02052023\raw\agro-1_132_032_38.0.tif
NumSubFrames = 26
FrameDosesAndNumber = 0.1186 26
DateTime = 03-May-23  14:27:59
FilterSlitAndLoss = 20 0

[ZValue = 34]
MinMaxMean = 0 19604 274.535
TiltAngle = 40.992
StagePosition = 3.34718 -301.291
StageZ = -5.72635
Magnification = 53000
Intensity = 0.134968
ExposureDose = 3.08367
DoseRate = 3.16972
PixelSpacing = 2.66
SpotSize = 6
Defocus = -3.50683
ImageShift = 0.261107 -0.63954
RotationAngle = 174.25
ExposureTime = 2.6
Binning = 1
CameraIndex = 0
DividedBy2 = 0
OperatingMode = 1
MagIndex = 28
LowDoseConSet = 4
CountsPerElectron = 38
TargetDefocus = -3.5
PriorRecordDose = 99.8727
SubFramePath = X:\Users\BioEMlab\Jarek\Jarek 02052023\raw\agro-1_132_034_41.0.tif
NumSubFrames = 26
FrameDosesAndNumber = 0.1186 26
DateTime = 03-May-23  14:29:19
FilterSlitAndLoss = 20 0

[ZValue = 35]
MinMaxMean = 0 18275 249.096
TiltAngle = 43.9961
StagePosition = 3.35788 -301.334
StageZ = -5.72703
Magnification = 53000
Intensity = 0.134968
ExposureDose = 3.08367
DoseRate = 2.86482
PixelSpacing = 2.66
SpotSize = 6
Defocus = -3.40757
ImageShift = 0.39007 -0.796522
RotationAngle = 174.25
ExposureTime = 2.6
Binning = 1
CameraIndex = 0
DividedBy2 = 0
OperatingMode = 1
MagIndex = 28
LowDoseConSet = 4
CountsPerElectron = 38
TargetDefocus = -3.5
PriorRecordDose = 104.142
SubFramePath = X:\Users\BioEMlab\Jarek\Jarek 02052023\raw\agro-1_132_036_44.0.tif
NumSubFrames = 26
FrameDosesAndNumber = 0.1186 26
DateTime = 03-May-23  14:30:16
FilterSlitAndLoss = 20 0
